time(ms), x(mm), y, z, ax(m/s2), ay, az
28001604.324,4.4679079439,157.51367667,203.8055109,-1.1055054365,-3.8555823694,0.15055089256
28001604.824,4.4736358973,157.58287679,203.72901433,-1.0952693411,-3.7854685663,0.14182448501
28001605.324,4.4788110979,157.65014912,203.65259303,-1.0850332457,-3.7153547633,0.13309807753
28001605.824,4.4834386639,157.71552872,203.57624264,-1.0747971502,-3.6452409602,0.12437166998
28001606.324,4.4875237132,157.77905064,203.49995881,-1.0645610548,-3.5751271573,0.11564526244
28001606.824,4.491071364,157.84074994,203.42373715,-1.0543249594,-3.5050133541,0.10691885495
28001607.324,4.4940867342,157.90066167,203.34757333,-1.044088864,-3.4348995511,0.098192447354
28001607.824,4.496574942,157.9588209,203.27146296,-1.0338527686,-3.3647857481,0.089466039924
28001608.324,4.4985411053,158.01526268,203.19540168,-1.0236166732,-3.294671945,0.080739632381
28001608.824,4.4999903422,158.07002207,203.11938514,-1.0133805778,-3.2245581419,0.072013224838
28001609.324,4.5009277708,158.12313412,203.04340897,-1.0031444823,-3.154444339,0.063286817351
28001609.824,4.5013585091,158.17463389,202.96746881,-0.99290838693,-3.0843305358,0.054560409751
28001610.324,4.5012876752,158.22455644,202.89156029,-0.98267229152,-3.0142167328,0.045834002265
28001610.824,4.5007203871,158.27293683,202.81567905,-0.9724361961,-2.9441029297,0.037107594778
28001611.324,4.4996617628,158.3198101,202.73982073,-0.96220010069,-2.8739891268,0.028381187235
28001611.824,4.4981169204,158.36521133,202.66398096,-0.95196400527,-2.8038753237,0.019654779692
28001612.324,4.496090978,158.40917556,202.58815538,-0.94172790986,-2.7337615207,0.010928372149
28001612.824,4.4935890536,158.45173785,202.51233963,-0.93149181445,-2.6636477176,0.002201964719
28001613.324,4.4906162652,158.49293326,202.43652934,-0.92125571903,-2.5935339145,-0.0065244428811
28001613.824,4.4871777309,158.53279685,202.36072016,-0.91101962362,-2.5234201115,-0.015250850367
28001614.324,4.4832785688,158.57136367,202.28490771,-0.9007835282,-2.4533063084,-0.023977257968
28001614.824,4.4789238968,158.60866878,202.20908764,-0.89054743279,-2.3831925055,-0.032703665397
28001615.324,4.4741188331,158.64474724,202.13325557,-0.88031133738,-2.3130787023,-0.04143007294
28001615.824,4.4688684957,158.6796341,202.05740716,-0.87007524196,-2.2429648993,-0.050156480484
28001616.324,4.4631780026,158.71336442,201.98153803,-0.85983914655,-2.1728510964,-0.05888288797
28001616.824,4.4570524719,158.74597326,201.90564382,-0.84960305114,-2.1027372932,-0.06760929557
28001617.324,4.4504970216,158.77749567,201.82972017,-0.83936695572,-2.0326234902,-0.076335703
28001617.824,4.4435167697,158.80796672,201.75376272,-0.82913086031,-1.9625096872,-0.0850621106
28001618.324,4.4361168344,158.83742145,201.6777671,-0.8188947649,-1.8923958841,-0.093788518086
28001618.824,4.4283023337,158.86589493,201.60172895,-0.80865866948,-1.822282081,-0.10251492563
28001619.324,4.4200783856,158.89342221,201.5256439,-0.79842257407,-1.7521682781,-0.11124133312
28001619.824,4.4114501081,158.92003835,201.4495076,-0.78818647866,-1.6820544749,-0.11996774066
28001620.324,4.4024226194,158.94577841,201.37331567,-0.77795038324,-1.611940672,-0.12869414815
28001620.824,4.3930010374,158.97067743,201.29706376,-0.76771428783,-1.5418268688,-0.13742055575
28001621.324,4.3831904803,158.99477049,201.22074751,-0.75747819241,-1.4717130658,-0.14614696323
28001621.824,4.372996066,159.01809264,201.14436254,-0.747242097,-1.4015992629,-0.15487337072
28001622.324,4.3624229125,159.04067892,201.0679045,-0.73700600159,-1.3314854597,-0.16359977832
28001622.824,4.3514761381,159.06256441,200.99136903,-0.72676990617,-1.2613716567,-0.17232618575
28001623.324,4.3401608606,159.08378416,200.91475175,-0.71653381076,-1.1912578536,-0.18105259335
28001623.824,4.3284821982,159.10437322,200.83804831,-0.70629771535,-1.1211440507,-0.18977900083
28001624.324,4.3164452689,159.12436665,200.76125435,-0.69606161993,-1.0510302476,-0.19850540838
28001624.824,4.3040551907,159.14379951,200.68436549,-0.68582552452,-0.98091644452,-0.20723181586
28001625.324,4.2913170818,159.16270685,200.60737739,-0.67558942911,-0.91080264144,-0.21595822341
28001625.824,4.27823606,159.18112374,200.53028566,-0.66535333369,-0.84068883848,-0.22468463095
28001626.324,4.2648172436,159.19908522,200.45308596,-0.65511723828,-0.7705750354,-0.23341103844
28001626.824,4.2510657504,159.21662636,200.37577391,-0.64488114286,-0.70046123238,-0.24213744598
28001627.324,4.2369866987,159.23378221,200.29834516,-0.63464504745,-0.63034742925,-0.25086385347
28001627.824,4.2225852064,159.25058783,200.22079534,-0.62440895204,-0.56023362629,-0.25959026107
28001628.324,4.2078663915,159.26707828,200.14312009,-0.61417285662,-0.49011982327,-0.26831666855
28001628.824,4.1928353722,159.28328861,200.06531505,-0.60393676121,-0.42000602014,-0.27704307604
28001629.324,4.1774972665,159.29925388,199.98737584,-0.5937006658,-0.34989221712,-0.28576948364
28001629.824,4.1618571923,159.31500915,199.90929812,-0.58346457038,-0.27977841415,-0.29449589107
28001630.324,4.1459202679,159.33058947,199.83107751,-0.57322847497,-0.20966461102,-0.30322229861
28001630.824,4.1296916111,159.34602991,199.75270965,-0.56299237955,-0.13955080794,-0.31194870621
28001631.324,4.1131763402,159.36136551,199.67419018,-0.55275628414,-0.069437005038,-0.3206751137
28001631.824,4.096379573,159.37663133,199.59551473,-0.54252018873,0.00067679815174,-0.32940152113
28001632.324,4.0793064277,159.39186244,199.51667895,-0.53228409331,0.070790601114,-0.33812792879
28001632.824,4.0619620223,159.40709388,199.43767847,-0.5220479979,0.14090440413,-0.34685433621
28001633.324,4.0443514748,159.42236072,199.35850892,-0.51181190249,0.21101820727,-0.35558074381
28001633.824,4.0264799034,159.43769802,199.27916595,-0.50157580707,0.28113201029,-0.3643071513
28001634.324,4.008352426,159.45314082,199.19964519,-0.49133971166,0.35124581325,-0.37303355879
28001634.824,3.9899741607,159.46872419,199.11994227,-0.48110361625,0.42135961638,-0.38175996633
28001635.324,3.9713502255,159.48448318,199.04005283,-0.47086752083,0.4914734194,-0.39048637387
28001635.824,3.9524857385,159.50045285,198.95997252,-0.46063142542,0.56158722248,-0.39921278142
28001636.324,3.9333858178,159.51666825,198.87969696,-0.45039533001,0.63170102544,-0.4079391889
28001636.824,3.9140555814,159.53316445,198.7992218,-0.44015923459,0.70181482852,-0.41666559639
28001637.324,3.8945001472,159.54997651,198.71854266,-0.42992313918,0.77192863165,-0.42539200399
28001637.824,3.8747246335,159.56713946,198.6376552,-0.41968704376,0.84204243456,-0.43411841148
28001638.324,3.8547341582,159.58468839,198.55655504,-0.40945094835,0.91215623769,-0.44284481902
28001638.824,3.8345338394,159.60265833,198.47523781,-0.39921485294,0.98227004071,-0.45157122651
28001639.324,3.8141287951,159.62108435,198.39369917,-0.38897875752,1.0523838438,-0.46029763405
28001639.824,3.7935241434,159.64000151,198.31193474,-0.37829300724,1.1139342008,-0.46670948382
28001640.324,3.7727250023,159.65944486,198.22994016,-0.36438869311,1.1141886631,-0.45655406802
28001640.824,3.7517367147,159.67944518,198.14771223,-0.34908177134,1.0877311834,-0.4391788562
28001641.324,3.7305662327,159.70000259,198.06525602,-0.33376904612,1.0611631801,-0.4217737719
28001641.824,3.7092212099,159.72110386,197.98258022,-0.31845632091,1.0345951769,-0.40436868761
28001642.324,3.6877093026,159.74273572,197.89969353,-0.3031435957,1.0080271737,-0.38696360315
28001642.824,3.666038167,159.76488488,197.81660466,-0.28783087049,0.98145917042,-0.36955851886
28001643.324,3.6442154597,159.78753804,197.73332231,-0.27251814527,0.95489116728,-0.35215343451
28001643.824,3.622248837,159.81068194,197.64985518,-0.25720542006,0.92832316409,-0.33474835016
28001644.324,3.6001459552,159.83430329,197.56621197,-0.24189269485,0.90175516078,-0.31734326575
28001644.824,3.5779144706,159.85838879,197.48240139,-0.22657996964,0.87518715759,-0.29993818146
28001645.324,3.5555620397,159.88292518,197.39843213,-0.21126724442,0.84861915445,-0.28253309705
28001645.824,3.5330963189,159.90789915,197.31431291,-0.19595451921,0.82205115115,-0.26512801276
28001646.324,3.5105249644,159.93329744,197.23005242,-0.180641794,0.79548314801,-0.24772292835
28001646.824,3.4878556326,159.95910675,197.14565936,-0.16532906879,0.7689151447,-0.23031784406
28001647.324,3.46509598,159.9853138,197.06114245,-0.15001634358,0.74234714162,-0.21291275959
28001647.824,3.4422536628,160.01190532,196.97651037,-0.13470361836,0.71577913826,-0.19550767536
28001648.324,3.4193363375,160.038868,196.89177184,-0.11939089315,0.68921113512,-0.17810259095
28001648.824,3.3963516603,160.06618857,196.80693556,-0.10407816794,0.66264313193,-0.16069750666
28001649.324,3.3733072877,160.09385375,196.72201022,-0.088765442729,0.63607512868,-0.14329242219
28001649.824,3.350210876,160.12185026,196.63700454,-0.073452717515,0.60950712543,-0.1258873379
28001650.324,3.3270700816,160.15016479,196.55192721,-0.058139992302,0.5829391223,-0.10848225361
28001650.824,3.3038925608,160.17878409,196.46678693,-0.042827267091,0.55637111905,-0.091077169145
28001651.324,3.2806859701,160.20769485,196.38159242,-0.027514541879,0.5298031158,-0.073672084852
28001651.824,3.2574579657,160.2368838,196.29635236,-0.012201816666,0.50323511266,-0.056267000446
28001652.324,3.234216204,160.26633765,196.21107547,0.0031109085468,0.47666710935,-0.038861916209
28001652.824,3.2109683414,160.29604311,196.12577045,0.018423633757,0.45009910622,-0.021456831746
28001653.324,3.1877220343,160.32598691,196.04044599,0.03373635897,0.42353110297,-0.0040517473963
28001653.824,3.164484939,160.35615576,195.95511081,0.049049084184,0.39696309977,0.013353336897
28001654.324,3.1412647119,160.38653638,195.8697736,0.064361809394,0.37039509652,0.030758421246
28001654.824,3.1180690093,160.41711548,195.78444307,0.079674534607,0.34382709333,0.048163505653
28001655.324,3.0949054876,160.44787977,195.69912792,0.09498725982,0.31725909008,0.065568590003
28001655.824,3.0717818032,160.47881598,195.61383684,0.11029998503,0.29069108695,0.082973674296
28001656.324,3.0487056124,160.50991082,195.52857856,0.12561271024,0.26412308364,0.10037875876
28001656.824,3.0256845716,160.541151,195.44336176,0.14092543546,0.2375550805,0.117783843
28001657.324,3.0027263372,160.57252324,195.35819515,0.15623816067,0.21098707731,0.1351889274
28001657.824,2.9798385655,160.60401427,195.27308743,0.17155088588,0.18441907395,0.15259401175
28001658.324,2.9570289128,160.63561078,195.1880473,0.18686361109,0.15785107092,0.1699990961
28001658.824,2.9343050356,160.66729951,195.10308348,0.2021763363,0.13128306756,0.18740418045
28001659.324,2.9116745902,160.69906716,195.01820465,0.21748906152,0.10471506437,0.2048092648
28001659.824,2.889145233,160.73090045,194.93341952,0.23280178673,0.078147061231,0.22221434921
28001660.324,2.8667246203,160.7627861,194.8487368,0.24811451194,0.051579057981,0.23961943344
28001660.824,2.8444204085,160.79471082,194.76416519,0.26342723715,0.025011054731,0.25702451791
28001661.324,2.822240254,160.82666134,194.67971338,0.27873996236,-0.0015569484049,0.27442960226
28001661.824,2.8001918131,160.85862436,194.59539009,0.29405268758,-0.028124951712,0.29183468649
28001662.324,2.7782827421,160.8905866,194.51120401,0.30936541279,-0.054692954905,0.30923977101
28001662.824,2.7565206975,160.92253477,194.42716385,0.324678138,-0.081260958041,0.32664485525
28001663.324,2.7349133356,160.9544556,194.34327831,0.33999086321,-0.10782896135,0.3440499396
28001663.824,2.7134683128,160.9863358,194.25955609,0.35253400167,-0.1344352915,0.35981286806
28001664.324,2.6921932854,161.01816209,194.1760059,0.33546172805,-0.1614514544,0.35801609175
28001664.824,2.671094525,161.04992116,194.09263562,0.30044094209,-0.18871599809,0.34557720198
28001665.324,2.6501634955,161.0815995,194.00944434,0.26516899482,-0.21598401713,0.33298939246
28001665.824,2.6293826864,161.11318349,193.92642585,0.22989704755,-0.24325203651,0.32040158311
28001666.324,2.6087344619,161.14465948,193.84357385,0.19462510027,-0.27052005561,0.30781377353
28001666.824,2.5882011859,161.17601385,193.76088206,0.159353153,-0.29778807487,0.29522596412
28001667.324,2.5677652224,161.20723295,193.67834417,0.12408120573,-0.32505609408,0.28263815466
28001667.824,2.5474089355,161.23830317,193.5959539,0.08880925845,-0.35232411329,0.27005034514
28001668.324,2.5271146892,161.26921085,193.51370494,0.053537311177,-0.37959213256,0.25746253573
28001668.824,2.5068648475,161.29994237,193.43159101,0.018265363903,-0.40686015166,0.24487472621
28001669.324,2.4866417745,161.3304841,193.34960581,-0.017006583372,-0.43412817104,0.2322869168
28001669.824,2.4664278341,161.3608224,193.26774305,-0.052278530645,-0.46139619013,0.21969910728
28001670.324,2.4462053905,161.39094363,193.18599643,-0.087550477918,-0.48866420934,0.20711129781
28001670.824,2.4259568076,161.42083416,193.10435967,-0.12282242519,-0.51593222867,0.1945234884
28001671.324,2.4056644495,161.45048036,193.02282645,-0.15809437247,-0.54320024776,0.18193567882
28001671.824,2.3853106801,161.4798686,192.9413905,-0.19336631974,-0.57046826709,0.16934786947
28001672.324,2.3648778636,161.50898524,192.86004552,-0.22863826701,-0.59773628618,0.15676005989
28001672.824,2.3443483639,161.53781664,192.77878521,-0.26391021429,-0.6250043055,0.14417225054
28001673.324,2.3237045451,161.56634917,192.69760328,-0.29918216156,-0.65227232471,0.13158444096
28001673.824,2.3029287711,161.5945692,192.61649344,-0.33445410884,-0.67954034387,0.11899663156
28001674.324,2.2820034061,161.6224631,192.53544939,-0.36972605611,-0.70680836308,0.10640882209
28001674.824,2.2609108141,161.65001722,192.45446483,-0.40499800338,-0.7340763824,0.09382101257
28001675.324,2.239633359,161.67721794,192.37353349,-0.44026995066,-0.7613444015,0.081233203161
28001675.824,2.2181534049,161.70405163,192.29264905,-0.47554189793,-0.78861242076,0.068645393696
28001676.324,2.1964533158,161.73050464,192.21180523,-0.51081384521,-0.81588044003,0.056057584175
28001676.824,2.1745154558,161.75656334,192.13099573,-0.54608579248,-0.84314845913,0.04346977471
28001677.324,2.1523221888,161.78221411,192.05021426,-0.58135773975,-0.87041647845,0.030881965301
28001677.824,2.129855879,161.8074433,191.96945453,-0.61662968703,-0.89768449766,0.01829415578
28001678.324,2.1070988903,161.83223728,191.88871023,-0.6519016343,-0.92495251681,0.0057063463146
28001678.824,2.0840335867,161.85658242,191.80797508,-0.68717358157,-0.95222053602,-0.0068814631504
28001679.324,2.0606423324,161.88046508,191.72724279,-0.72244552885,-0.97948855534,-0.019469272615
28001679.824,2.0369074912,161.90387163,191.64650706,-0.75771747612,-1.0067565744,-0.03205708208
28001680.324,2.0128114273,161.92678844,191.56576159,-0.7929894234,-1.0340245938,-0.044644891489
28001680.824,1.9883365046,161.94920187,191.48500009,-0.82826137067,-1.0612926129,-0.057232701067
28001681.324,1.9634650872,161.97109829,191.40421627,-0.86353331794,-1.0885606322,-0.069820510532
28001681.824,1.9381795392,161.99246406,191.32340384,-0.89880526522,-1.1158286513,-0.082408319884
28001682.324,1.9124622244,162.01328555,191.24255649,-0.93407721249,-1.1430966706,-0.094996129462
28001682.824,1.8862955071,162.03354913,191.16166794,-0.96934915976,-1.1703646898,-0.10758393887
28001683.324,1.8596617511,162.05324116,191.08073189,-1.004621107,-1.197632709,-0.12017174839
28001683.824,1.8325433206,162.07234801,190.99974205,-1.0398930543,-1.2249007282,-0.13275955786
28001684.324,1.8049225795,162.09085604,190.91869212,-1.0751650016,-1.2521687474,-0.14534736727
28001684.824,1.7767818919,162.10875161,190.83757582,-1.1104369489,-1.2794367667,-0.15793517673
28001685.324,1.7481036218,162.12602111,190.75638684,-1.1457088961,-1.3067047859,-0.17052298631
28001685.824,1.7188701332,162.14265089,190.67511889,-1.1809808434,-1.333972805,-0.18311079566
28001686.324,1.6890637901,162.15862731,190.59376568,-1.2162527907,-1.3612408243,-0.19569860518
28001686.824,1.6586669567,162.17393675,190.51232092,-1.251524738,-1.3885088435,-0.20828641465
28001687.324,1.6276619968,162.18856557,190.4307783,-1.2867966852,-1.4157768627,-0.22087422417
28001687.824,1.5960312746,162.20250013,190.34913155,-1.3161023921,-1.4376890501,-0.23235323147
28001688.324,1.563757154,162.21572681,190.26737435,-1.2875401642,-1.4076537942,-0.23307771357
28001688.824,1.5308249822,162.22823464,190.18550098,-1.2264619633,-1.3484292877,-0.22775923122
28001689.324,1.4972490404,162.24003864,190.10351107,-1.1650222904,-1.2888802915,-0.22237357098
28001689.824,1.4630598675,162.25116843,190.02140728,-1.1035826175,-1.2293312953,-0.21698791045
28001690.324,1.4282881836,162.26165378,189.93919231,-1.0421429445,-1.1697822991,-0.2116022502
28001690.824,1.3929647083,162.27152446,189.85686884,-0.9807032716,-1.1102333029,-0.20621658973
28001691.324,1.3571201615,162.28081025,189.77443957,-0.91926359867,-1.0506843067,-0.20083092943
28001691.824,1.3207852631,162.28954093,189.69190719,-0.85782392574,-0.99113531047,-0.19544526896
28001692.324,1.2839907329,162.29774626,189.60927439,-0.7963842528,-0.93158631432,-0.19005960866
28001692.824,1.2467672908,162.30545603,189.52654388,-0.73494457987,-0.87203731812,-0.18467394824
28001693.324,1.2091456565,162.3127,189.44371833,-0.67350490694,-0.81248832186,-0.17928828788
28001693.824,1.1711565499,162.31950795,189.36080044,-0.61206523401,-0.75293932571,-0.17390262752
28001694.324,1.1328306909,162.32590966,189.27779292,-0.55062556108,-0.6933903295,-0.16851696705
28001694.824,1.0941987993,162.3319349,189.19469844,-0.48918588815,-0.63384133324,-0.16313130681
28001695.324,1.0552915948,162.33761344,189.1115197,-0.42774621521,-0.57429233709,-0.15774564628
28001695.824,1.0161397975,162.34297507,189.02825939,-0.36630654228,-0.51474334089,-0.15235998603
28001696.324,0.97677412699,162.34804955,188.94492022,-0.30486686935,-0.45519434468,-0.14697432556
28001696.824,0.93722530324,162.35286665,188.86150486,-0.24342719642,-0.39564534848,-0.14158866526
28001697.324,0.89752404606,162.35745616,188.77801602,-0.18198752349,-0.33609635227,-0.13620300479
28001697.824,0.85770107528,162.36184785,188.69445638,-0.12054785056,-0.27654735607,-0.13081734448
28001698.324,0.81778711074,162.36607149,188.61082864,-0.059108177624,-0.21699835986,-0.12543168413
28001698.824,0.77781287228,162.37015685,188.52713549,0.0023314953077,-0.15744936371,-0.12004602365
28001699.324,0.73780907972,162.37413371,188.44337963,0.06377116824,-0.09790036745,-0.11466036329
28001699.824,0.69780645292,162.37803186,188.35956374,0.12521084117,-0.038351371245,-0.10927470299
28001700.324,0.65783571169,162.38188105,188.27569052,0.1866505141,0.02119762496,-0.10388904258
28001700.824,0.61792757589,162.38571106,188.19176267,0.24809018703,0.080746621109,-0.098503382162
28001701.324,0.57811276534,162.38955167,188.10778287,0.30952985997,0.14029561731,-0.093117721804
28001701.824,0.53842199989,162.39343266,188.02375382,0.3709695329,0.19984461358,-0.087732061445
28001702.324,0.49888599937,162.3973838,187.93967821,0.43240920583,0.25939360972,-0.08234640103
28001702.824,0.45953548361,162.40143485,187.85555873,0.49384887876,0.31894260599,-0.076960740671
28001703.324,0.42040117246,162.40561561,187.77139809,0.55528855169,0.37849160213,-0.071575080312
28001703.824,0.38151378575,162.40995583,187.68719896,0.61672822462,0.43804059834,-0.066189419897
28001704.324,0.34290404331,162.4144853,187.60296404,0.67816789756,0.49758959454,-0.060803759538
28001704.824,0.30460266499,162.41923379,187.51869603,0.73960757049,0.55713859075,-0.055418099123
28001705.324,0.26664037061,162.42423108,187.43439761,0.80104724342,0.61668758696,-0.050032438821
28001705.824,0.22904788002,162.42950693,187.35007149,0.86248691635,0.67623658322,-0.044646778349
28001706.324,0.19185591305,162.43509113,187.26572035,0.92392658928,0.73578557931,-0.039261118047
28001706.824,0.15509518954,162.44101345,187.18134689,0.98536626221,0.79533457557,-0.033875457632
28001707.324,0.11879642932,162.44730366,187.0969538,1.0468059351,0.85488357178,-0.028489797273
28001707.824,0.082990352237,162.45399154,187.01254377,1.1082456081,0.91443256792,-0.023104136858
