time(ms), x(mm), y, z, ax(m/s2), ay, az
29036693.699,-176.16349665,139.57916745,155.11244551,19.570395986,-13.948360116,-6.5019126842
29036694.199,-176.23811467,139.65440309,155.08564251,19.152361417,-13.675732352,-6.3847974262
29036694.699,-176.30921611,139.72518869,155.0571464,18.735076782,-13.402038623,-6.2661164917
29036695.199,-176.37687527,139.79161618,155.02699046,18.318503059,-13.127336994,-6.1459539981
29036695.699,-176.44116645,139.85377752,154.99520797,17.902601999,-12.851684102,-6.0243919898
29036696.199,-176.50216396,139.91176463,154.9618322,17.487336129,-12.575135182,-5.9015104651
29036696.699,-176.55994211,139.96566945,154.92689642,17.072668763,-12.297744087,-5.7773874009
29036697.199,-176.6145752,140.01558392,154.89043392,16.658564007,-12.019563307,-5.652098776
29036697.699,-176.66613754,140.06159997,154.85247797,16.24498677,-11.74064399,-5.5257185957
29036698.199,-176.71470344,140.10380955,154.81306184,15.831902766,-11.461035962,-5.3983189119
29036698.699,-176.7603472,140.14230459,154.77221881,15.419278523,-11.180787741,-5.269969844
29036699.199,-176.80314313,140.17717702,154.72998216,15.007081386,-10.899946555,-5.1407395995
29036699.699,-176.84316553,140.20851879,154.68638516,14.595279525,-10.618558357,-5.0106944907
29036700.199,-176.88048871,140.23642184,154.64146108,14.183841934,-10.336667843,-4.8798989537
29036700.699,-176.91518698,140.26097809,154.59524322,13.772738442,-10.054318462,-4.7484155636
29036701.199,-176.94733465,140.28227949,154.54776483,13.361939709,-9.7715524302,-4.6163050508
29036701.699,-176.97700601,140.30041797,154.4990592,12.951417236,-9.4884107437,-4.4836263141
29036702.199,-177.00427537,140.31548547,154.44915959,12.541143363,-9.2049331901,-4.3504364357
29036702.699,-177.02921705,140.32757393,154.3980993,12.131091275,-8.9211583589,-4.2167906914
29036703.199,-177.05190535,140.33677529,154.34591159,11.721235001,-8.6371236508,-4.0827425647
29036703.699,-177.07241457,140.34318147,154.29262974,11.31154942,-8.3528652883,-3.9483437548
29036704.199,-177.09081902,140.34688443,154.23828702,10.902010261,-8.0684183213,-3.813644188
29036704.699,-177.10719301,140.3479761,154.18291672,10.492594101,-7.7838166386,-3.6786920265
29036705.199,-177.12161084,140.34654841,154.1265521,10.083278375,-7.4990929715,-3.5435336746
29036705.699,-177.13414682,140.3426933,154.06922645,9.6740413691,-7.214278902,-3.4082137885
29036706.199,-177.14487525,140.33650271,154.01097303,9.264862225,-6.9294048679,-3.2727752803
29036706.699,-177.15387044,140.32806857,153.95182513,8.8557209414,-6.6445001677,-3.1372593258
29036707.199,-177.1612067,140.31748283,153.89181602,8.4465983732,-6.3595929664,-3.0017053678
29036707.699,-177.16695834,140.30483742,153.83097897,8.0374762336,-6.0747102962,-2.866151121
29036708.199,-177.17119965,140.29022428,153.76934727,7.6283370928,-5.7898780644,-2.7306325762
29036708.699,-177.17400495,140.27373534,153.70695418,7.2191643799,-5.5051210518,-2.5951840017
29036709.199,-177.17544855,140.25546254,153.64383299,6.8099423828,-5.2204629182,-2.4598379483
29036709.699,-177.17560474,140.23549783,153.58001697,6.4006562467,-4.9359262018,-2.3246252475
29036710.199,-177.17454783,140.21393313,153.51553939,5.9912919769,-4.6515323234,-2.1895750163
29036710.699,-177.17235214,140.19086038,153.45043354,5.5818364355,-4.3673015832,-2.0547146556
29036711.199,-177.16909196,140.16637152,153.38473268,5.1722773438,-4.0832531665,-1.920069852
29036711.699,-177.1648416,140.1405585,153.3184701,4.7626032801,-3.7994051383,-1.7856645754
29036712.199,-177.15967538,140.11351323,153.25167906,4.3528036806,-3.5157744478,-1.6515210818
29036712.699,-177.15366759,140.08532767,153.18439285,3.9428688372,-3.232376924,-1.5176599083
29036713.199,-177.14689254,140.05609375,153.11664474,3.5327898989,-2.9492272779,-1.3840998754
29036713.699,-177.13942454,140.02590341,153.04846801,3.1225588696,-2.6663390988,-1.2508580827
29036714.199,-177.13133789,139.99484858,152.97989593,2.7121686081,-2.3837248538,-1.1179499074
29036714.699,-177.1227069,139.96302121,152.91096178,2.3016128261,-2.1013958864,-0.98538900383
29036715.199,-177.11360588,139.93051322,152.84169884,1.8908860894,-1.8193624134,-0.85318729768
29036715.699,-177.10410913,139.89741656,152.77214037,1.479983815,-1.5376335237,-0.72135498606
29036716.199,-177.09429096,139.86382316,152.70231966,1.0689022712,-1.2562171749,-0.58990053292
29036716.699,-177.08422568,139.82982496,152.63226998,0.65763857522,-0.97512019202,-0.45883066665
29036717.199,-177.07398758,139.7955139,152.56202461,0.24619069453,-0.69434826296,-0.32815037666
29036717.699,-177.06365098,139.76098191,152.49161683,-0.16544255652,-0.41390593741,-0.19786290929
29036718.199,-177.05329019,139.72632094,152.4210799,-0.577261517,-0.13379662239,-0.067969765818
29036718.699,-177.04297951,139.69162292,152.35044711,-0.98926568051,0.14597741966,0.061529302405
29036719.199,-177.03279324,139.65697978,152.27975173,-1.4014536959,0.42541507416,0.19063629665
29036719.699,-177.02280569,139.62248346,152.20902704,-1.8138233694,0.70451637883,0.3193549752
29036720.199,-177.01309117,139.58822591,152.13830631,-2.2263716642,0.98328252469,0.44769085507
29036720.699,-177.00372399,139.55429906,152.06762282,-2.6390947036,1.2617158612,0.57565121827
29036721.199,-176.99477845,139.52079484,151.99700984,-3.0519877704,1.5398198976,0.70324511151
29036721.699,-176.98632885,139.48780519,151.92650066,-3.4650453076,1.817599308,0.8304833533
29036722.199,-176.97844951,139.45542206,151.85612854,-3.8782609213,2.0950599317,0.95737853337
29036722.699,-176.97121472,139.42373737,151.78592677,-4.29162738,2.3722087793,1.0839450186
29036723.199,-176.9646988,139.39284306,151.71592861,-4.7051366148,2.6490540326,1.2101989535
29036723.699,-176.95897605,139.36283108,151.64616735,-5.1187797223,2.9256050486,1.336158264
29036724.199,-176.95412078,139.33379336,151.57667626,-5.532546963,3.2018723618,1.461842659
29036724.699,-176.9502073,139.30582183,151.50748861,-5.9464277628,3.4778676869,1.587273633
29036725.199,-176.9473099,139.27900843,151.43863769,-6.3604107131,3.7536039199,1.7124744665
29036725.699,-176.9455029,139.25344511,151.37015676,-6.7744835708,4.0290951403,1.8374702291
29036726.199,-176.9448606,139.22922379,151.30207911,-7.1886332585,4.3043566141,1.9622877789
29036726.699,-176.94545731,139.20643642,151.23443801,-7.6028458643,4.5794047925,2.0869557635
29036727.199,-176.94736734,139.18517493,151.16726673,-8.017106641,4.8542573158,2.2115046207
29036727.699,-176.95066498,139.16553126,151.10059855,-8.4314000063,5.1289330116,2.3359665776
29036728.199,-176.95542456,139.14759735,151.03446675,-8.8457095416,5.403451898,2.460375651
29036728.699,-176.96172037,139.13146513,150.96890461,-9.2600179903,5.6778351808,2.5847676436
29036729.199,-176.96962671,139.11722654,150.90394539,-9.6394628316,5.9300649754,2.7005442583
29036729.699,-176.9792179,139.10497352,150.83962238,-9.6007617195,5.9178875324,2.7128580826
29036730.199,-176.99056213,139.09479024,150.77596656,-9.2858909682,5.7314081382,2.6571012762
29036730.699,-177.00365419,139.08666767,150.7129814,-8.966004898,5.542120457,2.6004474334
29036731.199,-177.01844042,139.08053524,150.65065223,-8.6460079715,5.3531007464,2.5440792912
29036731.699,-177.0348663,139.07632131,150.58896405,-8.3259113639,5.164332405,2.4879689691
29036732.199,-177.05287732,139.07395421,150.52790184,-8.0057258175,4.9757993593,2.4320895907
29036732.699,-177.07241895,139.0733623,150.46745062,-7.6854616452,4.7874860671,2.3764152873
29036733.199,-177.09343667,139.07447391,150.40759537,-7.3651287306,4.5993775188,2.3209212017
29036733.699,-177.11587597,139.0772174,150.34832109,-7.0447365307,4.4114592388,2.265583488
29036734.199,-177.13968232,139.08152111,150.28961278,-6.7242940755,4.2237172889,2.2103793169
29036734.699,-177.16480121,139.08731339,150.23145544,-6.4038099721,4.0361382679,2.1552868754
29036735.199,-177.19117811,139.09452258,150.17383406,-6.0832924019,3.8487093147,2.1002853693
29036735.699,-177.21875852,139.10307703,150.11673364,-5.7627491245,3.661418109,2.0453550261
29036736.199,-177.2474879,139.11290509,150.06013918,-5.4421874767,3.4742528716,1.9904770934
29036736.699,-177.27731173,139.1239351,150.00403568,-5.1216143734,3.2872023681,1.9356338444
29036737.199,-177.30817551,139.1360954,149.94840813,-4.8010363078,3.1002559069,1.8808085745
29036737.699,-177.3400247,139.14931435,149.89324153,-4.4804593524,2.9134033421,1.8259856059
29036738.199,-177.3728048,139.16352028,149.83852088,-4.1598891573,2.7266350738,1.7711502863
29036738.699,-177.40646128,139.17864155,149.78423118,-3.8393309528,2.5399420483,1.7162889906
29036739.199,-177.44093961,139.1946065,149.73035741,-3.5187895467,2.3533157595,1.6613891202
29036739.699,-177.47618529,139.21134348,149.67688459,-3.1982693257,2.166748249,1.6064391054
29036740.199,-177.5121438,139.22878083,149.6237977,-2.8777742552,1.9802321061,1.5514284033
29036740.699,-177.5487606,139.24684689,149.57108174,-2.5573078778,1.7937604702,1.4963475003
29036741.199,-177.58598119,139.26547003,149.51872172,-2.2368733137,1.6073270273,1.4411879096
29036741.699,-177.62375104,139.28457857,149.46670262,-1.9164732607,1.4209260152,1.3859421738
29036742.199,-177.66201564,139.30410087,149.41500945,-1.5961099926,1.2345522186,1.3306038628
29036742.699,-177.70072047,139.32396527,149.3636272,-1.2757853595,1.0482009734,1.2751675743
29036743.199,-177.739811,139.34410011,149.31254087,-0.95550078679,0.86186816416,1.2196289336
29036743.699,-177.77923271,139.36443376,149.26173546,-0.6352572755,0.67555022562,1.1639845933
29036744.199,-177.8189311,139.38489454,149.21119596,-0.31505540057,0.48924414126,1.1082322319
29036744.699,-177.85885163,139.4054108,149.16090737,0.0051046894309,0.30294744507,1.052370555
29036745.199,-177.89893979,139.4259109,149.11085469,0.32522327133,0.11665821912,0.99639929282
29036745.699,-177.93914106,139.44632318,149.06102292,0.64530105051,-0.069624903409,0.94031920114
29036746.199,-177.97940092,139.46657598,149.01139705,0.96533915859,-0.25590274203,0.88413206043
29036746.699,-178.01966485,139.48659765,148.96196208,1.2853391557,-0.44217556591,0.82784067394
29036747.199,-178.05987833,139.50631653,148.91270301,1.6053030308,-0.62844309607,0.77144886915
29036747.699,-178.09998684,139.52566098,148.86360483,1.9252331994,-0.81470450485,0.71496149452
29036748.199,-178.13993587,139.54455933,148.81465254,2.2451325083,-1.0009584156,0.6583844219
29036748.699,-178.17967089,139.56293994,148.76583115,2.5650042311,-1.187202904,0.60172454284
29036749.199,-178.21913738,139.58073114,148.71712564,2.8848520712,-1.3734354972,0.54498976965
29036749.699,-178.25828083,139.5978613,148.66852101,3.2046801605,-1.5596531749,0.48818903501
29036750.199,-178.29704671,139.61425874,148.62000226,3.5244930593,-1.7458523684,0.43133228976
29036750.699,-178.3353805,139.62985182,148.57155439,3.8442957569,-1.9320289617,0.37443050378
29036751.199,-178.37322769,139.64456888,148.5231624,4.1640936691,-2.1181782916,0.31749566484
29036751.699,-178.41053376,139.65833827,148.47481128,4.4838926398,-2.3042951464,0.26054077874
29036752.199,-178.44724419,139.67108833,148.42648602,4.8036989399,-2.4903737687,0.2035798671
29036752.699,-178.48330445,139.68274742,148.37817164,5.1235192641,-2.6764078519,0.14662796992
29036753.199,-178.51866003,139.69324387,148.32985312,5.4433607334,-2.8623905432,0.089701142008
29036753.699,-178.55325641,139.70250603,148.28151545,5.7632308913,-3.048314442,0.032816455579
29036754.199,-178.58703908,139.71046226,148.23314365,6.0831377029,-3.2341716001,-0.024008001377
29036754.699,-178.6199535,139.71704088,148.18472271,6.4030895546,-3.4199535214,-0.080753125433
29036755.199,-178.65194516,139.72217026,148.13623761,6.7230952496,-3.6056511619,-0.13739879585
29036755.699,-178.68295954,139.72577873,148.08767337,7.0431640096,-3.7912549292,-0.19392387673
29036756.199,-178.71294213,139.72779465,148.03901497,7.3633054682,-3.9767546826,-0.25030621465
29036756.699,-178.74183839,139.72814635,147.99024742,7.6835296728,-4.1621397314,-0.30652263971
29036757.199,-178.76959382,139.72676219,147.94135571,8.0038470783,-4.3473988365,-0.36254896431
29036757.699,-178.7961539,139.72357051,147.89232483,8.3242685459,-4.5325202066,-0.41835998204
29036758.199,-178.8214641,139.71849965,147.8431398,8.6448053401,-4.7174915018,-0.47392946845
29036758.699,-178.8454699,139.71147796,147.7937856,8.9654691236,-4.9022998284,-0.52923017783
29036759.199,-178.8681168,139.7024338,147.74424722,9.2862719557,-5.0869317412,-0.58423384394
29036759.699,-178.88935025,139.69129549,147.69450968,9.6072262855,-5.2713732408,-0.63891117805
29036760.199,-178.90911576,139.6779914,147.64455796,9.9283449505,-5.4556097732,-0.69323186684
29036760.699,-178.92735879,139.66244986,147.59437706,10.249641169,-5.6396262294,-0.74716457262
29036761.199,-178.94402483,139.64459922,147.54395198,10.571128537,-5.8234069412,-0.80067692891
29036761.699,-178.95905936,139.62436783,147.49326772,10.892821022,-6.006935684,-0.85373554106
29036762.199,-178.97240785,139.60168403,147.44230928,11.214732956,-6.1901956712,-0.90630598224
29036762.699,-178.9840158,139.57647618,147.39106164,11.536879033,-6.3731695556,-0.95835279245
29036763.199,-178.99382868,139.5486726,147.33950981,11.859274298,-6.5558394262,-1.0098394749
29036763.699,-179.00179197,139.51820166,147.28763879,12.181934142,-6.7381868056,-1.0607284941
29036764.199,-179.00785115,139.4849917,147.23543357,12.504874296,-6.9201926505,-1.1109812727
29036764.699,-179.01195171,139.44897106,147.18287915,12.828110818,-7.101837346,-1.1605581884
29036765.199,-179.01403911,139.41006808,147.12996052,12.991583044,-7.2052556894,-1.1979277777
29036765.699,-179.01405885,139.36821112,147.07666269,12.299821735,-6.8926979899,-1.1737514999
29036766.199,-179.01198294,139.32336358,147.02297354,11.323339064,-6.442226844,-1.1298036346
29036766.699,-179.0079251,139.27567614,146.96889633,10.34641003,-5.9921576225,-1.0866057764
29036767.199,-179.00204624,139.22536181,146.91443946,9.3691935769,-5.5426357743,-1.0442753213
29036767.699,-178.99450727,139.17263361,146.85961134,8.3916600097,-5.0937103261,-1.002907102
29036768.199,-178.98546912,139.11770459,146.80442036,7.4137827205,-4.6454270475,-0.96258705058
29036768.699,-178.9750927,139.06078777,146.74887492,6.4355381699,-4.1978284546,-0.92339220298
29036769.199,-178.96353894,139.0020962,146.69298342,5.456905861,-3.7509538066,-0.88539069618
29036769.699,-178.95096876,138.94184291,146.63675425,4.4778683134,-3.3048391087,-0.84864177136
29036770.199,-178.93754307,138.88024094,146.58019583,3.4984110339,-2.8595171091,-0.81319577014
29036770.699,-178.92342279,138.81750332,146.52331655,2.5185224837,-2.4150172988,-0.77909413639
29036771.199,-178.90876886,138.75384308,146.4661248,1.5381940462,-1.9713659109,-0.74636941112
29036771.699,-178.89374218,138.68947327,146.40862898,0.55741999177,-1.5285859174,-0.71504523469
29036772.199,-178.87850368,138.62460692,146.3508375,-0.42380255791,-1.0866970285,-0.68513633922
29036772.699,-178.86321428,138.55945706,146.29275876,-1.4054736662,-0.6457156894,-0.6566485498
29036773.199,-178.8480349,138.49423674,146.23440115,-2.3875906176,-0.20565507912,-0.6295787795
29036773.699,-178.83312646,138.42915898,146.17577307,-3.3701479544,0.23347489398,-0.60391502635
29036774.199,-178.81864989,138.36443682,146.11688293,-4.353137511,0.67166759322,-0.57963636888
29036774.699,-178.80476609,138.30028329,146.05773911,-5.3365484502,1.1089196583,-0.55671296348
29036775.199,-178.79163599,138.23691145,145.99835002,-6.3203672938,1.545231007,-0.53510603914
29036775.699,-178.77942052,138.17453431,145.93872407,-7.3045779557,1.9806048396,-0.51476789421
29036776.199,-178.76828059,138.11336491,145.87886964,-8.2891617681,2.4150476421,-0.49564189069
29036776.699,-178.75837713,138.0536163,145.81879514,-9.2740975091,2.8485691891,-0.47766245035
29036777.199,-178.74987104,137.9955015,145.75850897,-10.171102571,3.2454832138,-0.4603057147
29036777.699,-178.74292327,137.93923355,145.69801952,-10.325196006,3.3413765,-0.43960661912
29036778.199,-178.73768025,137.88500675,145.63733532,-10.107005861,3.2869642338,-0.41654133939
29036778.699,-178.73416665,137.83285759,145.57646586,-9.8859753368,3.231681389,-0.39300465703
29036779.199,-178.73234612,137.7827435,145.51542116,-9.6648869872,3.1766484885,-0.36903094691
29036779.699,-178.73218185,137.73462136,145.45421121,-9.4437434462,3.1218631375,-0.3446383656
29036780.199,-178.73363704,137.68844801,145.39284603,-9.2225472444,3.0673229294,-0.31984466661
29036780.699,-178.73667487,137.64418031,145.33133561,-9.0013008138,3.0130254492,-0.29466719925
29036781.199,-178.74125856,137.60177511,145.26968998,-8.7800064933,2.9589682694,-0.26912291039
29036781.699,-178.74735128,137.56118928,145.20791912,-8.5586665324,2.9051489521,-0.24322834571
29036782.199,-178.75491623,137.52237966,145.14603305,-8.337283095,2.8515650482,-0.21699964957
29036782.699,-178.76391662,137.48530312,145.08404177,-8.1158582652,2.7982140965,-0.19045256504
29036783.199,-178.77431562,137.4499165,145.0219553,-7.8943940485,2.7450936235,-0.16360243651
29036783.699,-178.78607644,137.41617667,144.95978363,-7.672892378,2.692201144,-0.13646420797
29036784.199,-178.79916227,137.38404049,144.89753677,-7.4513551159,2.6395341598,-0.10905242532
29036784.699,-178.81353631,137.35346479,144.83522472,-7.2297840581,2.5870901597,-0.081381235588
29036785.199,-178.82916174,137.32440645,144.7728575,-7.0081809356,2.534866619,-0.053464388458
29036785.699,-178.84600176,137.29682232,144.71044511,-6.7865474196,2.4828610004,-0.025315235083
29036786.199,-178.86401958,137.27066926,144.64799756,-6.5648851221,2.4310707512,0.0030532694797
29036786.699,-178.88317837,137.24590411,144.58552484,-6.3431955997,2.3794933062,0.031628567671
29036787.199,-178.90344134,137.22248374,144.52303698,-6.1214803553,2.328126085,0.060398498703
29036787.699,-178.92477168,137.200365,144.46054396,-5.8997408406,2.2769664924,0.089351297721
29036788.199,-178.94713259,137.17950475,144.39805581,-5.677978459,2.2260119185,0.11847559581
29036788.699,-178.97048725,137.15985984,144.33558252,-5.4561945646,2.1752597386,0.14776042132
29036789.199,-178.99479886,137.14138713,144.2731341,-5.2343904685,2.1247073117,0.17719519655
29036789.699,-179.02003062,137.12404347,144.21072056,-5.012567436,2.0743519816,0.20676974152
29036790.199,-179.04614572,137.10778573,144.1483519,-4.7907266912,2.0241910763,0.23647427018
29036790.699,-179.07310736,137.09257075,144.08603813,-4.568869416,1.9742219071,0.26629939333
29036791.199,-179.10087873,137.07835539,144.02378925,-4.3469967545,1.9244417693,0.29623611703
29036791.699,-179.12942301,137.06509652,143.96161528,-4.1251098102,1.8748479411,0.32627584232
29036792.199,-179.15870342,137.05275098,143.89952621,-3.9032096504,1.8254376844,0.35641036682
29036792.699,-179.18868314,137.04127562,143.83753206,-3.6812973049,1.7762082429,0.38663188302
29036793.199,-179.21932536,137.03062732,143.77564282,-3.4593737682,1.7271568444,0.41693297999
29036793.699,-179.25059329,137.02076291,143.71386851,-3.2374400002,1.678280698,0.44730664156
29036794.199,-179.28245011,137.01163926,143.65221913,-3.0154969251,1.6295769952,0.47774624835
29036794.699,-179.31485902,137.00321323,143.59070469,-2.7935454342,1.5810429101,0.50824557706
29036795.199,-179.34778321,136.99544166,143.52933518,-2.5715863855,1.5326755981,0.53879879933
29036795.699,-179.38118587,136.98828142,143.46812063,-2.3496206033,1.4844721964,0.56940048526
29036796.199,-179.41503021,136.98168937,143.40707104,-2.1276488806,1.4364298236,0.60004559913
29036796.699,-179.44927942,136.97562234,143.3461964,-1.9056719762,1.3885455797,0.63072950359
29036797.199,-179.48389668,136.97003721,143.28550673,-1.683690619,1.3408165461,0.66144795759
29036797.699,-179.5188452,136.96489083,143.22501203,-1.4617055042,1.2932397843,0.69219711622
29036798.199,-179.55408817,136.96014006,143.16472231,-1.2397172963,1.2458123375,0.7229735331
29036798.699,-179.58958878,136.95574174,143.10464758,-1.0177266276,1.198531229,0.75377415856
29036799.199,-179.62531023,136.95165274,143.04479784,-0.79573409967,1.1513934632,0.78459633973
29036799.699,-179.6612157,136.94782991,142.98518309,-0.57374028129,1.1043960238,0.81543782302
